altitude,pressure
0,101.325
1,89.876
2,79.501
3,70.121
4,61.660
5,54.048
6,47.217
7,41.105
8,35.651
9,30.800
10,26.499
11,22.699
12,19.399
13,16.579
14,14.170
15,12.111
16,10.350
17,8.850
18,7.565
19,6.467
20,5.529
21,4.729
22,4.048
23,3.467
24,2.972
25,2.549
30,1.197
35,0.575
40,0.287
45,0.149
50,0.080
